Raman Shift ; Dark Subtracted
176 ; 1224.53
180 ; 1020.64
184 ; 855.95
188 ; 745.36
192 ; 642.93
196 ; 562.66
200 ; 494.69
204 ; 458.08
208 ; 418.86
212 ; 394.84
216 ; 370.30
220 ; 326.50
224 ; 284.80
228 ; 286.70
232 ; 278.41
236 ; 256.55
240 ; 247.66
244 ; 240.66
248 ; 230.73
252 ; 215.30
256 ; 189.62
260 ; 208.97
264 ; 211.24
268 ; 180.96
272 ; 159.23
276 ; 160.89
280 ; 156.09
284 ; 162.40
288 ; 156.90
292 ; 145.81
296 ; 132.57
300 ; 145.87
304 ; 128.83
308 ; 153.18
312 ; 134.07
316 ; 101.00
320 ; 104.26
324 ; 133.29
328 ; 129.90
332 ; 113.09
336 ; 103.47
340 ; 95.32
344 ; 113.11
348 ; 112.22
352 ; 112.98
356 ; 117.27
360 ; 108.44
364 ; 96.33
368 ; 106.54
372 ; 108.82
376 ; 106.84
380 ; 107.73
384 ; 108.64
388 ; 102.84
392 ; 119.98
396 ; 113.17
400 ; 114.01
404 ; 107.69
408 ; 98.14
412 ; 98.40
416 ; 105.09
420 ; 100.89
424 ; 111.98
428 ; 83.02
432 ; 95.77
436 ; 95.86
440 ; 87.97
444 ; 93.06
448 ; 96.81
452 ; 84.94
456 ; 86.89
460 ; 99.01
464 ; 101.92
468 ; 102.25
472 ; 85.84
476 ; 84.40
480 ; 83.73
484 ; 95.79
488 ; 85.89
492 ; 78.07
496 ; 89.66
500 ; 89.76
504 ; 95.60
508 ; 100.83
512 ; 106.52
516 ; 78.31
520 ; 87.36
524 ; 98.35
528 ; 91.79
532 ; 97.95
536 ; 95.09
540 ; 86.94
544 ; 103.00
548 ; 92.40
552 ; 107.78
556 ; 120.38
560 ; 97.68
564 ; 105.61
568 ; 115.58
572 ; 107.06
576 ; 93.50
580 ; 108.97
584 ; 99.66
588 ; 103.91
592 ; 113.99
596 ; 102.66
600 ; 96.39
604 ; 103.70
608 ; 101.84
612 ; 101.71
616 ; 96.76
620 ; 87.26
624 ; 97.23
628 ; 89.56
632 ; 99.87
636 ; 92.90
640 ; 56.11
644 ; 53.63
648 ; 68.68
652 ; 80.76
656 ; 77.39
660 ; 66.08
664 ; 72.53
668 ; 82.81
672 ; 68.01
676 ; 70.72
680 ; 62.86
684 ; 47.12
688 ; 62.88
692 ; 74.35
696 ; 60.30
700 ; 58.05
704 ; 82.90
708 ; 135.21
712 ; 198.40
716 ; 216.10
720 ; 201.52
724 ; 129.26
728 ; 94.76
732 ; 105.42
736 ; 193.48
740 ; 266.25
744 ; 293.04
748 ; 201.59
752 ; 136.43
756 ; 75.78
760 ; 60.83
764 ; 37.04
768 ; 50.48
772 ; 33.67
776 ; 60.73
780 ; 43.26
784 ; 35.92
788 ; 49.09
792 ; 43.15
796 ; 66.31
800 ; 40.79
804 ; 40.17
808 ; 49.94
812 ; 38.52
816 ; 64.94
820 ; 74.05
824 ; 45.14
828 ; 35.35
832 ; 62.79
836 ; 44.19
840 ; 34.55
844 ; 41.08
848 ; 46.02
852 ; 62.42
856 ; 58.33
860 ; 58.64
864 ; 39.79
868 ; 48.09
872 ; 52.20
876 ; 58.04
880 ; 56.48
884 ; 34.11
888 ; 37.07
892 ; 41.03
896 ; 41.47
900 ; 31.97
904 ; 50.53
908 ; 53.62
912 ; 64.81
916 ; 39.73
920 ; 31.02
924 ; 32.62
928 ; 28.62
932 ; 60.78
936 ; 63.27
940 ; 35.99
944 ; 45.63
948 ; 61.45
952 ; 53.00
956 ; 45.80
960 ; 33.49
964 ; 93.65
968 ; 58.80
972 ; 53.19
976 ; 21.09
980 ; 41.08
984 ; 62.66
988 ; 64.91
992 ; 46.78
996 ; 47.26
1000 ; 76.58
1004 ; 76.55
1008 ; 74.35
1012 ; 75.09
1016 ; 61.54
1020 ; 107.80
1024 ; 138.00
1028 ; 160.52
1032 ; 228.46
1036 ; 411.89
1040 ; 1230.05
1044 ; 3893.80
1048 ; 5700.33
1052 ; 3573.79
1056 ; 1279.48
1060 ; 489.90
1064 ; 264.04
1068 ; 142.10
1072 ; 133.51
1076 ; 101.05
1080 ; 90.28
1084 ; 61.40
1088 ; 65.31
1092 ; 65.31
1096 ; 57.86
1100 ; 78.58
1104 ; 30.28
1108 ; 50.73
1112 ; 76.08
1116 ; 65.45
1120 ; 37.65
1124 ; 53.14
1128 ; 86.01
1132 ; 68.35
1136 ; 74.30
1140 ; 51.84
1144 ; 39.15
1148 ; 67.80
1152 ; 27.03
1156 ; 28.90
1160 ; 30.65
1164 ; 62.81
1168 ; 71.28
1172 ; 57.02
1176 ; 32.67
1180 ; 40.02
1184 ; 49.52
1188 ; 68.59
1192 ; 47.59
1196 ; 31.49
1200 ; 40.92
1204 ; 73.00
1208 ; 29.20
1212 ; 66.35
1216 ; 68.87
1220 ; 55.49
1224 ; 63.59
1228 ; 31.24
1232 ; 38.30
1236 ; 45.99
1240 ; 36.63
1244 ; 30.65
1248 ; 68.88
1252 ; 65.54
1256 ; 5.80
1260 ; 0.44
1264 ; 42.19
1268 ; 64.51
1272 ; 31.39
1276 ; 70.58
1280 ; 47.55
1284 ; 28.22
1288 ; 24.02
1292 ; 25.68
1296 ; 20.69
1300 ; 84.50
1304 ; 99.92
1308 ; 73.71
1312 ; -19.47
1316 ; 81.79
1320 ; 66.83
1324 ; 90.38
1328 ; 45.04
1332 ; 94.09
1336 ; 154.30
1340 ; 74.44
1344 ; 123.42
1348 ; 190.31
1352 ; 207.44
1356 ; 181.73
1360 ; 185.62
1364 ; 138.56
1368 ; 151.69
1372 ; 69.41
1376 ; 74.45
1380 ; 50.78
1384 ; 67.11
1388 ; 75.90
1392 ; 36.14
1396 ; 64.21
1400 ; 118.40
1404 ; 76.92
1408 ; 79.46
1412 ; 102.42
1416 ; 153.04
1420 ; 127.36
1424 ; 118.46
1428 ; 112.71
1432 ; 196.76
1436 ; 163.99
1440 ; 84.59
1444 ; 134.67
1448 ; 158.75
1452 ; 110.67
1456 ; 54.90
1460 ; 81.34
1464 ; 109.23
1468 ; 109.25
1472 ; 18.87
1476 ; 83.89
1480 ; 79.49
1484 ; 36.31
1488 ; 23.30
1492 ; 95.19
1496 ; 88.77
1500 ; 25.97
1504 ; 62.19
1508 ; 61.59
1512 ; 50.46
1516 ; 46.24
1520 ; 55.11
1524 ; 61.13
1528 ; 58.02
1532 ; 36.31
1536 ; -6.22
1540 ; 35.71
1544 ; 50.20
1548 ; 61.35
1552 ; 81.63
1556 ; 54.07
1560 ; 35.62
1564 ; 12.27
1568 ; 32.96
1572 ; 128.59
1576 ; 66.00
1580 ; 6.29
1584 ; 88.86
1588 ; 74.83
1592 ; -0.63
1596 ; 68.67
1600 ; 62.39
1604 ; 43.99
1608 ; 3.36
1612 ; 82.36
1616 ; 39.12
1620 ; 39.15
1624 ; 91.66
1628 ; 35.04
1632 ; 124.13
1636 ; 127.39
1640 ; 167.14
1644 ; 147.28
1648 ; 79.58
1652 ; 106.54
1656 ; 105.80
1660 ; 64.45
1664 ; 46.22
1668 ; 11.56
1672 ; 67.37
1676 ; 28.85
1680 ; 23.29
1684 ; 60.43
1688 ; 117.73
1692 ; 73.86
1696 ; 11.72
1700 ; 37.43
1704 ; 115.10
1708 ; 49.18
1712 ; 55.66
1716 ; 54.31
1720 ; 14.20
1724 ; -27.96
1728 ; 52.24
1732 ; 127.89
1736 ; 49.37
1740 ; 28.79
1744 ; 56.63
1748 ; 29.88
1752 ; 4.97
1756 ; 47.26
1760 ; 58.73
1764 ; 0.67
1768 ; -22.71
1772 ; 115.10
1776 ; 59.23
1780 ; 18.96
1784 ; 35.29
1788 ; 40.86
1792 ; 47.20
1796 ; 24.24
1800 ; 47.58
1804 ; 30.53
1808 ; -41.05
1812 ; 118.99
1816 ; 78.10
1820 ; 20.23
1824 ; 144.70
1828 ; 26.51
1832 ; 9.77
1836 ; 49.75
1840 ; 80.07
1844 ; 59.78
1848 ; 5.57
1852 ; -60.58
1856 ; 52.93
1860 ; 17.73
1864 ; 25.67
1868 ; 68.60
1872 ; 46.46
1876 ; 32.70
1880 ; 9.62
1884 ; 62.97
1888 ; 56.87
1892 ; 110.19
1896 ; 41.32
1900 ; -41.00
1904 ; 40.52
1908 ; 10.42
1912 ; -25.51
1916 ; 1.00
1920 ; 76.19
1924 ; 64.13
1928 ; -122.20
1932 ; 163.08
1936 ; 38.90
1940 ; 21.06
1944 ; 96.22
1948 ; 27.98
1952 ; -44.33
1956 ; 74.69
1960 ; 204.53
1964 ; 22.38
1968 ; 110.61
1972 ; 30.39
1976 ; -29.91
1980 ; 114.61
1984 ; 135.78
1988 ; 6.90
1992 ; 49.32
1996 ; 74.29
2000 ; 32.43
2004 ; -23.02
2008 ; 192.08
2012 ; -25.39
2016 ; -47.06
2020 ; 146.49
2024 ; 94.05
2028 ; -16.17
2032 ; 71.89
2036 ; 175.40
2040 ; -72.73
2044 ; 144.12
2048 ; 65.75
2052 ; -47.00
2056 ; 52.39
2060 ; 204.64
2064 ; -117.76
2068 ; 53.49
2072 ; 141.69
2076 ; -47.66
2080 ; 162.45
2084 ; 76.72
2088 ; -56.19
2092 ; 103.41
2096 ; 44.58
2100 ; -23.20
2104 ; 118.29
2108 ; 243.61
2112 ; -61.44
2116 ; 86.93
2120 ; 10.61
2124 ; -92.96
2128 ; 226.23
2132 ; 280.89
2136 ; -135.46
2140 ; 175.55
2144 ; 25.68
2148 ; 88.26
2152 ; 100.28
2156 ; 35.28
2160 ; -51.37
2164 ; 160.88
2168 ; 111.23
2172 ; 106.53
2176 ; 141.49
2180 ; -252.56
2184 ; 180.58
2188 ; 348.67
2192 ; -56.22
2196 ; -81.04
2200 ; 136.53
2204 ; -161.03
2208 ; 60.16
2212 ; 127.97
2216 ; -17.75
2220 ; 192.84
2224 ; -126.85
2228 ; -6.09
2232 ; 59.10
2236 ; 52.56
2240 ; 143.25
2244 ; 238.64
2248 ; -214.02
2252 ; 253.47
2256 ; 103.38
2260 ; -45.83
2264 ; 270.24
2268 ; -1.52
2272 ; 243.62
2276 ; 383.84
2280 ; 58.28
2284 ; 203.65
2288 ; 129.84
2292 ; 31.44
2296 ; 220.11
2300 ; 37.12
2304 ; -16.13
2308 ; -24.68
2312 ; -24.31
2316 ; 276.84
2320 ; 17.23
2324 ; 307.41
2328 ; 24.24
2332 ; 173.46
2336 ; 121.19
2340 ; 127.81
2344 ; 20.11
2348 ; 252.24
2352 ; 312.56
2356 ; 47.60
2360 ; 323.36
2364 ; -50.31
2368 ; -19.68
2372 ; 234.72
2376 ; -153.06
2380 ; 287.03
2384 ; -112.09
2388 ; -23.47
2392 ; 275.23
2396 ; 94.53
2400 ; 269.73
2404 ; 50.52
2408 ; 166.80
2412 ; 191.27
2416 ; 71.45
2420 ; 438.98
2424 ; -453.41
2428 ; 382.93
2432 ; 429.23
2436 ; 67.48
2440 ; 254.27
2444 ; 8.33
2448 ; 583.15
2452 ; 389.05
2456 ; -155.99
2460 ; 204.02
2464 ; -107.14
2468 ; 560.70
2472 ; 56.53
2476 ; -34.87
2480 ; 276.25
2484 ; -66.36
2488 ; 74.84
2492 ; -375.88
2496 ; 184.13
2500 ; 275.62
