Raman Shift ; Dark Subtracted
176 ; 4016.36
180 ; 3864.40
184 ; 3469.81
188 ; 3375.10
192 ; 3480.75
196 ; 3486.75
200 ; 3339.86
204 ; 3380.23
208 ; 3565.57
212 ; 3591.06
216 ; 3482.06
220 ; 3363.42
224 ; 3201.88
228 ; 2973.16
232 ; 2739.65
236 ; 2525.66
240 ; 2306.10
244 ; 2068.06
248 ; 1818.29
252 ; 1605.60
256 ; 1471.28
260 ; 1425.17
264 ; 1390.60
268 ; 1219.78
272 ; 1083.06
276 ; 1230.35
280 ; 1267.24
284 ; 965.42
288 ; 944.88
292 ; 1281.60
296 ; 1319.06
300 ; 1107.60
304 ; 1069.69
308 ; 1209.05
312 ; 1387.38
316 ; 1433.98
320 ; 1314.04
324 ; 1147.68
328 ; 1055.23
332 ; 1105.64
336 ; 1182.10
340 ; 1207.24
344 ; 1264.52
348 ; 1363.87
352 ; 1442.07
356 ; 1488.98
360 ; 1486.25
364 ; 1330.01
368 ; 1109.14
372 ; 1149.03
376 ; 1298.17
380 ; 1207.59
384 ; 1051.48
388 ; 1007.72
392 ; 969.40
396 ; 879.02
400 ; 771.63
404 ; 791.91
408 ; 974.60
412 ; 962.84
416 ; 738.38
420 ; 700.35
424 ; 785.27
428 ; 774.10
432 ; 785.96
436 ; 859.75
440 ; 833.96
444 ; 748.81
448 ; 731.36
452 ; 706.18
456 ; 630.56
460 ; 600.30
464 ; 649.59
468 ; 742.35
472 ; 774.84
476 ; 707.46
480 ; 642.64
484 ; 621.58
488 ; 629.96
492 ; 676.18
496 ; 738.09
500 ; 732.39
504 ; 682.73
508 ; 673.71
512 ; 676.30
516 ; 652.73
520 ; 608.20
524 ; 563.52
528 ; 548.21
532 ; 598.89
536 ; 701.08
540 ; 762.11
544 ; 731.73
548 ; 646.60
552 ; 735.63
556 ; 960.85
560 ; 937.52
564 ; 756.36
568 ; 667.79
572 ; 650.64
576 ; 632.76
580 ; 559.81
584 ; 500.74
588 ; 496.65
592 ; 444.23
596 ; 410.43
600 ; 535.29
604 ; 659.45
608 ; 653.65
612 ; 558.00
616 ; 525.73
620 ; 647.43
624 ; 701.18
628 ; 630.28
632 ; 571.94
636 ; 533.95
640 ; 497.81
644 ; 483.33
648 ; 556.23
652 ; 719.88
656 ; 711.80
660 ; 591.77
664 ; 713.74
668 ; 865.31
672 ; 803.55
676 ; 615.08
680 ; 520.05
684 ; 657.17
688 ; 758.64
692 ; 741.50
696 ; 751.42
700 ; 830.09
704 ; 963.97
708 ; 1108.31
712 ; 1196.31
716 ; 1258.53
720 ; 1548.32
724 ; 1907.14
728 ; 1992.72
732 ; 1986.31
736 ; 1872.56
740 ; 1420.11
744 ; 1056.78
748 ; 1001.86
752 ; 865.90
756 ; 635.72
760 ; 465.92
764 ; 416.01
768 ; 415.28
772 ; 374.80
776 ; 377.17
780 ; 407.34
784 ; 371.75
788 ; 318.18
792 ; 341.96
796 ; 492.50
800 ; 518.56
804 ; 389.80
808 ; 456.08
812 ; 544.49
816 ; 481.15
820 ; 478.69
824 ; 486.72
828 ; 394.70
832 ; 296.82
836 ; 275.91
840 ; 346.02
844 ; 404.44
848 ; 371.82
852 ; 294.02
856 ; 461.29
860 ; 629.53
864 ; 372.70
868 ; 211.02
872 ; 281.70
876 ; 290.74
880 ; 290.57
884 ; 357.59
888 ; 467.07
892 ; 446.71
896 ; 387.08
900 ; 519.83
904 ; 464.01
908 ; 208.97
912 ; 187.35
916 ; 440.68
920 ; 627.33
924 ; 380.14
928 ; 298.58
932 ; 435.88
936 ; 288.61
940 ; 197.36
944 ; 280.69
948 ; 318.82
952 ; 334.38
956 ; 356.71
960 ; 382.80
964 ; 440.07
968 ; 485.43
972 ; 473.37
976 ; 504.51
980 ; 496.62
984 ; 381.65
988 ; 430.31
992 ; 442.79
996 ; 260.41
1000 ; 351.16
1004 ; 509.67
1008 ; 469.79
1012 ; 457.34
1016 ; 508.39
1020 ; 551.40
1024 ; 531.80
1028 ; 561.19
1032 ; 729.93
1036 ; 1077.40
1040 ; 1729.13
1044 ; 2545.13
1048 ; 5660.14
1052 ; 18808.06
1056 ; 34627.92
1060 ; 38703.45
1064 ; 25571.24
1068 ; 9716.52
1072 ; 3101.07
1076 ; 1578.16
1080 ; 1348.09
1084 ; 993.85
1088 ; 897.44
1092 ; 860.31
1096 ; 779.90
1100 ; 715.51
1104 ; 681.67
1108 ; 543.23
1112 ; 369.43
1116 ; 502.30
1120 ; 660.46
1124 ; 720.37
1128 ; 778.92
1132 ; 604.86
1136 ; 426.09
1140 ; 452.99
1144 ; 368.02
1148 ; 391.81
1152 ; 557.26
1156 ; 551.79
1160 ; 493.78
1164 ; 414.63
1168 ; 295.30
1172 ; 258.23
1176 ; 303.51
1180 ; 392.40
1184 ; 483.13
1188 ; 470.08
1192 ; 361.98
1196 ; 245.85
1200 ; 198.75
1204 ; 316.27
1208 ; 437.16
1212 ; 333.28
1216 ; 310.14
1220 ; 315.87
1224 ; 202.14
1228 ; 82.57
1232 ; 200.81
1236 ; 385.66
1240 ; 339.92
1244 ; 224.44
1248 ; 254.10
1252 ; 396.59
1256 ; 419.75
1260 ; 272.86
1264 ; 265.14
1268 ; 481.68
1272 ; 562.51
1276 ; 406.93
1280 ; 266.96
1284 ; 319.69
1288 ; 399.16
1292 ; 622.53
1296 ; 718.32
1300 ; 466.93
1304 ; 339.17
1308 ; 484.33
1312 ; 556.38
1316 ; 342.64
1320 ; 380.54
1324 ; 471.57
1328 ; 456.10
1332 ; 481.21
1336 ; 631.69
1340 ; 639.54
1344 ; 602.10
1348 ; 779.86
1352 ; 874.94
1356 ; 857.49
1360 ; 863.50
1364 ; 963.71
1368 ; 1021.71
1372 ; 932.32
1376 ; 737.65
1380 ; 612.38
1384 ; 691.13
1388 ; 700.36
1392 ; 578.21
1396 ; 480.12
1400 ; 505.31
1404 ; 626.64
1408 ; 602.14
1412 ; 599.32
1416 ; 1045.42
1420 ; 1206.06
1424 ; 1503.91
1428 ; 1971.65
1432 ; 2000.56
1436 ; 1999.50
1440 ; 1794.66
1444 ; 1339.31
1448 ; 956.94
1452 ; 916.38
1456 ; 744.46
1460 ; 722.69
1464 ; 749.43
1468 ; 297.21
1472 ; 349.56
1476 ; 415.53
1480 ; 341.56
1484 ; 368.16
1488 ; 222.98
1492 ; 310.20
1496 ; 362.17
1500 ; 285.31
1504 ; 348.72
1508 ; 292.43
1512 ; 395.07
1516 ; 472.28
1520 ; 373.35
1524 ; 358.51
1528 ; 253.71
1532 ; 226.53
1536 ; 242.69
1540 ; 170.07
1544 ; 142.69
1548 ; 255.41
1552 ; 223.26
1556 ; 168.41
1560 ; 244.46
1564 ; 181.64
1568 ; 175.51
1572 ; 147.42
1576 ; 133.39
1580 ; 203.83
1584 ; 209.13
1588 ; 116.70
1592 ; 277.08
1596 ; 409.87
1600 ; 277.20
1604 ; 240.96
1608 ; 334.43
1612 ; 239.68
1616 ; 300.93
1620 ; 310.85
1624 ; 0.00
1628 ; 303.74
1632 ; 418.11
1636 ; 408.17
1640 ; 440.32
1644 ; 478.76
1648 ; 617.58
1652 ; 658.86
1656 ; 462.22
1660 ; 483.16
1664 ; 576.31
1668 ; 381.66
1672 ; 353.67
1676 ; 313.97
1680 ; 207.78
1684 ; 274.98
1688 ; 319.47
1692 ; 146.71
1696 ; 199.88
1700 ; 130.98
1704 ; 218.40
1708 ; 282.65
1712 ; 105.97
1716 ; 13.35
1720 ; 209.34
1724 ; 110.59
1728 ; 168.03
1732 ; 181.48
1736 ; 260.66
1740 ; 337.72
1744 ; 0.00
1748 ; 78.10
1752 ; 116.81
1756 ; 35.35
1760 ; 115.92
1764 ; 213.52
1768 ; 173.71
1772 ; 245.58
1776 ; 134.42
1780 ; 72.95
1784 ; 198.02
1788 ; 130.93
1792 ; 42.19
1796 ; 181.13
1800 ; 151.79
1804 ; 232.70
1808 ; 34.91
1812 ; 291.86
1816 ; 345.17
1820 ; 83.58
1824 ; 119.89
1828 ; 141.86
1832 ; 0.00
1836 ; 177.77
1840 ; 46.97
1844 ; 52.68
1848 ; 156.83
1852 ; 211.89
1856 ; 184.86
1860 ; 32.18
1864 ; 153.56
1868 ; 116.72
1872 ; 286.21
1876 ; 264.37
1880 ; 133.54
1884 ; 36.13
1888 ; 12.95
1892 ; 141.41
1896 ; 232.45
1900 ; 128.83
1904 ; 22.01
1908 ; 81.13
1912 ; 155.50
1916 ; 198.12
1920 ; 253.89
1924 ; 183.40
1928 ; 25.85
1932 ; 74.18
1936 ; 169.25
1940 ; 19.93
1944 ; 91.26
1948 ; 93.92
1952 ; 6.93
1956 ; 61.82
1960 ; 225.56
1964 ; 158.95
1968 ; 145.87
1972 ; 286.29
1976 ; 165.85
1980 ; 104.66
1984 ; 31.86
1988 ; 152.09
1992 ; 84.15
1996 ; 164.78
2000 ; 55.14
2004 ; 0.00
2008 ; 165.84
2012 ; 128.62
2016 ; 0.00
2020 ; 75.70
2024 ; 108.86
2028 ; 118.00
2032 ; 5.55
2036 ; 48.62
2040 ; 190.52
2044 ; 84.95
2048 ; 12.26
2052 ; 0.00
2056 ; 193.64
2060 ; 165.57
2064 ; 197.35
2068 ; 168.25
2072 ; 71.63
2076 ; 70.18
2080 ; 112.03
2084 ; 132.74
2088 ; 179.33
2092 ; 109.37
2096 ; 27.15
2100 ; 163.62
2104 ; 61.89
2108 ; 43.68
2112 ; 76.19
2116 ; 0.00
2120 ; 13.84
2124 ; 254.26
2128 ; 116.57
2132 ; 159.94
2136 ; 286.22
2140 ; 151.66
2144 ; 279.46
2148 ; 226.60
2152 ; 19.33
2156 ; 18.36
2160 ; 48.59
2164 ; 159.85
2168 ; 310.19
2172 ; 198.83
2176 ; 113.38
2180 ; 25.29
2184 ; 197.92
2188 ; 255.66
2192 ; 123.00
2196 ; 240.02
2200 ; 122.01
2204 ; 172.56
2208 ; 330.80
2212 ; 262.83
2216 ; 78.84
2220 ; 60.82
2224 ; 42.82
2228 ; 64.35
2232 ; 358.58
2236 ; 185.86
2240 ; 11.22
2244 ; 140.30
2248 ; 235.42
2252 ; 170.39
2256 ; 87.18
2260 ; 13.36
2264 ; 16.51
2268 ; 94.77
2272 ; 36.56
2276 ; 145.82
2280 ; 230.99
2284 ; 125.26
2288 ; 121.46
2292 ; 139.15
2296 ; 64.79
2300 ; 243.60
2304 ; 170.50
2308 ; 102.09
2312 ; 63.09
2316 ; 193.94
2320 ; 6.88
2324 ; 159.54
2328 ; 28.90
2332 ; 65.33
2336 ; 188.62
2340 ; 15.56
2344 ; 82.13
2348 ; 34.19
2352 ; 139.49
2356 ; 111.01
2360 ; 38.83
2364 ; 125.95
2368 ; 220.81
2372 ; 66.02
2376 ; 22.72
2380 ; 121.99
2384 ; 167.52
2388 ; 207.98
2392 ; 146.42
2396 ; 316.52
2400 ; 123.47
2404 ; 118.24
2408 ; 13.33
2412 ; 148.68
2416 ; 197.32
2420 ; 166.42
2424 ; 70.69
2428 ; 108.40
2432 ; 71.97
2436 ; 0.00
2440 ; 134.90
2444 ; 69.82
2448 ; 77.87
2452 ; 74.42
2456 ; 107.13
2460 ; 87.68
2464 ; 75.08
2468 ; 174.94
2472 ; 98.87
2476 ; 4.16
2480 ; 128.40
2484 ; 92.65
2488 ; 0.00
2492 ; 80.78
2496 ; 188.62
2500 ; 270.60
