Raman Shift ; Dark Subtracted
176 ; 462.34
180 ; 457.86
184 ; 449.48
188 ; 432.99
192 ; 430.92
196 ; 448.24
200 ; 458.13
204 ; 449.59
208 ; 456.06
212 ; 442.29
216 ; 449.23
220 ; 432.69
224 ; 428.10
228 ; 397.19
232 ; 354.59
236 ; 312.47
240 ; 299.88
244 ; 280.09
248 ; 264.10
252 ; 245.31
256 ; 222.77
260 ; 217.08
264 ; 216.64
268 ; 191.88
272 ; 184.09
276 ; 191.35
280 ; 187.00
284 ; 198.38
288 ; 198.07
292 ; 188.18
296 ; 204.80
300 ; 219.21
304 ; 218.66
308 ; 210.29
312 ; 219.07
316 ; 207.06
320 ; 198.24
324 ; 222.00
328 ; 213.29
332 ; 200.80
336 ; 215.98
340 ; 226.52
344 ; 236.71
348 ; 233.07
352 ; 240.35
356 ; 262.04
360 ; 243.25
364 ; 233.80
368 ; 207.75
372 ; 212.72
376 ; 202.27
380 ; 201.56
384 ; 202.84
388 ; 196.12
392 ; 192.98
396 ; 180.36
400 ; 185.12
404 ; 166.39
408 ; 180.30
412 ; 184.36
416 ; 174.39
420 ; 179.63
424 ; 158.81
428 ; 160.19
432 ; 158.30
436 ; 164.76
440 ; 153.19
444 ; 164.53
448 ; 152.78
452 ; 150.00
456 ; 139.21
460 ; 153.56
464 ; 159.03
468 ; 146.62
472 ; 164.84
476 ; 143.52
480 ; 146.26
484 ; 158.32
488 ; 150.65
492 ; 156.70
496 ; 146.33
500 ; 133.49
504 ; 140.14
508 ; 148.31
512 ; 132.57
516 ; 144.65
520 ; 131.67
524 ; 138.05
528 ; 138.15
532 ; 131.42
536 ; 137.16
540 ; 134.57
544 ; 140.71
548 ; 150.61
552 ; 135.30
556 ; 147.42
560 ; 135.14
564 ; 137.52
568 ; 138.89
572 ; 127.38
576 ; 128.16
580 ; 128.85
584 ; 118.78
588 ; 119.10
592 ; 126.44
596 ; 134.10
600 ; 116.20
604 ; 138.11
608 ; 125.58
612 ; 138.71
616 ; 125.97
620 ; 126.85
624 ; 128.81
628 ; 121.52
632 ; 118.04
636 ; 127.83
640 ; 126.63
644 ; 121.44
648 ; 128.12
652 ; 130.52
656 ; 119.65
660 ; 138.38
664 ; 146.54
668 ; 99.77
672 ; 127.13
676 ; 148.23
680 ; 172.48
684 ; 136.26
688 ; 138.55
692 ; 144.24
696 ; 152.92
700 ; 156.76
704 ; 155.14
708 ; 162.10
712 ; 184.35
716 ; 220.48
720 ; 271.93
724 ; 269.43
728 ; 268.16
732 ; 277.51
736 ; 214.08
740 ; 223.29
744 ; 171.62
748 ; 144.76
752 ; 143.30
756 ; 126.79
760 ; 101.34
764 ; 92.65
768 ; 104.60
772 ; 132.75
776 ; 105.79
780 ; 116.89
784 ; 97.08
788 ; 103.95
792 ; 117.41
796 ; 120.20
800 ; 102.41
804 ; 111.26
808 ; 113.37
812 ; 100.91
816 ; 104.26
820 ; 101.12
824 ; 100.94
828 ; 110.11
832 ; 122.70
836 ; 118.17
840 ; 112.51
844 ; 100.11
848 ; 106.38
852 ; 106.22
856 ; 116.43
860 ; 137.33
864 ; 108.57
868 ; 108.09
872 ; 130.94
876 ; 102.15
880 ; 135.56
884 ; 98.13
888 ; 103.38
892 ; 106.59
896 ; 96.53
900 ; 116.42
904 ; 115.70
908 ; 113.46
912 ; 99.25
916 ; 108.93
920 ; 98.31
924 ; 104.23
928 ; 92.52
932 ; 106.72
936 ; 108.17
940 ; 114.85
944 ; 134.06
948 ; 138.25
952 ; 101.96
956 ; 104.26
960 ; 113.54
964 ; 102.10
968 ; 106.62
972 ; 102.04
976 ; 98.59
980 ; 128.42
984 ; 125.71
988 ; 116.61
992 ; 134.39
996 ; 117.16
1000 ; 114.89
1004 ; 138.38
1008 ; 156.01
1012 ; 160.40
1016 ; 126.74
1020 ; 144.27
1024 ; 162.05
1028 ; 169.40
1032 ; 209.67
1036 ; 220.29
1040 ; 285.05
1044 ; 398.32
1048 ; 688.15
1052 ; 2886.96
1056 ; 6556.17
1060 ; 5251.76
1064 ; 1817.05
1068 ; 771.22
1072 ; 420.09
1076 ; 240.64
1080 ; 199.49
1084 ; 185.37
1088 ; 173.80
1092 ; 158.74
1096 ; 150.28
1100 ; 147.04
1104 ; 138.33
1108 ; 103.07
1112 ; 124.07
1116 ; 121.30
1120 ; 153.41
1124 ; 162.73
1128 ; 144.92
1132 ; 147.29
1136 ; 125.71
1140 ; 116.95
1144 ; 132.17
1148 ; 128.71
1152 ; 154.97
1156 ; 130.90
1160 ; 128.31
1164 ; 111.76
1168 ; 97.19
1172 ; 115.64
1176 ; 124.24
1180 ; 118.74
1184 ; 116.16
1188 ; 119.10
1192 ; 116.32
1196 ; 92.76
1200 ; 73.77
1204 ; 114.99
1208 ; 103.76
1212 ; 117.66
1216 ; 131.76
1220 ; 104.15
1224 ; 129.79
1228 ; 116.47
1232 ; 82.38
1236 ; 89.84
1240 ; 86.58
1244 ; 97.36
1248 ; 108.09
1252 ; 123.45
1256 ; 120.20
1260 ; 82.73
1264 ; 121.07
1268 ; 100.23
1272 ; 100.75
1276 ; 97.58
1280 ; 137.38
1284 ; 132.17
1288 ; 150.53
1292 ; 174.17
1296 ; 193.01
1300 ; 141.51
1304 ; 163.90
1308 ; 160.48
1312 ; 142.32
1316 ; 154.36
1320 ; 160.09
1324 ; 184.60
1328 ; 141.98
1332 ; 162.32
1336 ; 158.50
1340 ; 183.36
1344 ; 153.46
1348 ; 159.74
1352 ; 175.03
1356 ; 211.24
1360 ; 214.11
1364 ; 239.38
1368 ; 217.53
1372 ; 209.79
1376 ; 173.87
1380 ; 205.27
1384 ; 166.96
1388 ; 188.68
1392 ; 166.80
1396 ; 165.51
1400 ; 167.24
1404 ; 142.97
1408 ; 188.54
1412 ; 189.00
1416 ; 229.76
1420 ; 309.86
1424 ; 281.41
1428 ; 318.87
1432 ; 407.03
1436 ; 384.97
1440 ; 386.63
1444 ; 278.91
1448 ; 281.19
1452 ; 252.31
1456 ; 172.97
1460 ; 179.47
1464 ; 177.35
1468 ; 202.43
1472 ; 156.36
1476 ; 135.67
1480 ; 106.25
1484 ; 121.93
1488 ; 143.07
1492 ; 130.50
1496 ; 135.00
1500 ; 139.83
1504 ; 108.58
1508 ; 166.78
1512 ; 86.02
1516 ; 136.55
1520 ; 94.34
1524 ; 94.13
1528 ; 124.86
1532 ; 145.47
1536 ; 131.78
1540 ; 75.48
1544 ; 52.31
1548 ; 100.30
1552 ; 82.97
1556 ; 117.17
1560 ; 137.80
1564 ; 128.70
1568 ; 115.19
1572 ; 92.54
1576 ; 118.88
1580 ; 88.03
1584 ; 176.88
1588 ; 136.30
1592 ; 107.16
1596 ; 130.39
1600 ; 115.70
1604 ; 98.74
1608 ; 116.19
1612 ; 94.12
1616 ; 95.41
1620 ; 81.68
1624 ; 148.09
1628 ; 69.16
1632 ; 156.29
1636 ; 173.93
1640 ; 152.46
1644 ; 123.55
1648 ; 112.16
1652 ; 153.74
1656 ; 170.46
1660 ; 132.02
1664 ; 149.54
1668 ; 158.44
1672 ; 145.16
1676 ; 146.22
1680 ; 140.07
1684 ; 137.38
1688 ; 107.32
1692 ; 122.62
1696 ; 199.63
1700 ; 116.64
1704 ; 82.76
1708 ; 201.98
1712 ; 156.77
1716 ; 96.05
1720 ; 144.25
1724 ; 101.29
1728 ; 94.15
1732 ; 118.74
1736 ; 147.33
1740 ; 75.46
1744 ; 130.40
1748 ; 72.94
1752 ; 132.28
1756 ; 180.05
1760 ; 82.22
1764 ; 120.84
1768 ; 70.94
1772 ; 87.43
1776 ; 12.93
1780 ; 133.58
1784 ; 144.04
1788 ; 54.89
1792 ; 87.66
1796 ; 87.17
1800 ; 106.26
1804 ; 84.09
1808 ; 171.22
1812 ; 112.59
1816 ; 111.79
1820 ; 93.79
1824 ; 172.10
1828 ; 98.81
1832 ; 118.64
1836 ; 152.56
1840 ; 191.34
1844 ; 110.49
1848 ; 81.84
1852 ; 97.09
1856 ; 123.59
1860 ; 126.55
1864 ; 103.55
1868 ; 152.91
1872 ; 64.15
1876 ; 135.56
1880 ; 83.59
1884 ; 126.04
1888 ; 198.27
1892 ; 122.96
1896 ; 94.36
1900 ; 14.03
1904 ; 160.03
1908 ; 132.11
1912 ; 83.81
1916 ; 114.45
1920 ; 101.74
1924 ; 177.71
1928 ; 107.96
1932 ; 36.59
1936 ; 127.74
1940 ; 118.02
1944 ; 145.00
1948 ; 75.00
1952 ; 118.41
1956 ; 106.85
1960 ; 122.12
1964 ; 160.96
1968 ; 66.75
1972 ; 152.54
1976 ; 130.55
1980 ; -16.44
1984 ; 63.44
1988 ; 123.02
1992 ; 109.75
1996 ; 84.72
2000 ; 123.92
2004 ; 201.74
2008 ; 174.92
2012 ; 70.15
2016 ; 244.03
2020 ; 105.13
2024 ; 129.04
2028 ; 97.75
2032 ; 129.49
2036 ; 69.03
2040 ; 212.36
2044 ; 85.08
2048 ; 212.00
2052 ; 85.44
2056 ; 170.10
2060 ; 213.19
2064 ; 115.49
2068 ; 121.50
2072 ; 100.92
2076 ; 216.61
2080 ; 119.24
2084 ; 109.39
2088 ; 198.60
2092 ; 135.34
2096 ; 135.65
2100 ; 238.63
2104 ; 216.52
2108 ; 4.25
2112 ; 104.24
2116 ; 171.69
2120 ; 151.19
2124 ; 192.55
2128 ; 174.12
2132 ; 137.60
2136 ; 52.11
2140 ; 126.46
2144 ; 207.15
2148 ; 265.46
2152 ; 134.09
2156 ; 235.73
2160 ; 178.04
2164 ; 280.86
2168 ; 219.27
2172 ; 114.44
2176 ; -60.23
2180 ; 73.52
2184 ; 55.36
2188 ; 258.66
2192 ; 22.02
2196 ; 216.24
2200 ; -136.76
2204 ; 115.18
2208 ; 276.07
2212 ; 300.03
2216 ; 142.39
2220 ; 252.98
2224 ; 172.15
2228 ; 274.48
2232 ; 231.15
2236 ; 139.74
2240 ; 262.88
2244 ; 220.00
2248 ; 245.44
2252 ; 63.29
2256 ; 196.94
2260 ; 225.89
2264 ; -163.27
2268 ; -16.21
2272 ; 164.99
2276 ; 227.04
2280 ; 70.77
2284 ; 101.83
2288 ; 52.24
2292 ; 303.99
2296 ; 501.38
2300 ; 66.73
2304 ; 73.66
2308 ; 215.13
2312 ; 213.74
2316 ; 312.21
2320 ; -62.19
2324 ; -200.45
2328 ; 221.22
2332 ; 220.18
2336 ; 34.00
2340 ; 447.20
2344 ; 216.20
2348 ; 108.47
2352 ; 91.54
2356 ; 203.27
2360 ; 149.37
2364 ; 211.31
2368 ; -7.95
2372 ; 263.52
2376 ; 258.25
2380 ; 441.55
2384 ; 113.84
2388 ; 100.40
2392 ; -28.54
2396 ; 522.31
2400 ; 141.51
2404 ; -16.37
2408 ; 271.28
2412 ; 254.88
2416 ; 356.15
2420 ; 430.15
2424 ; 140.07
2428 ; 561.78
2432 ; 107.72
2436 ; 380.79
2440 ; 257.83
2444 ; 521.75
2448 ; 564.73
2452 ; 448.79
2456 ; 86.31
2460 ; -7.00
2464 ; -2.67
2468 ; 375.65
2472 ; 267.30
2476 ; 385.87
2480 ; 68.65
2484 ; 124.79
2488 ; 47.75
2492 ; 84.90
2496 ; 29.58
2500 ; 353.84
